#
# "New limits on the density of the extragalactic background light
#  in the optical to the far-infrared from the spectra of all known TeV blazars"
#
#  Daniel Mazin & Martin Raue (2007)
#
#  submitted to A & A, astro-ph/0701694
#
#  systematic errors relative to the realistic limit are:
#
#     < 6 microns: 32%
#     > 6 microns: 33% - 55%
#
# wavelength   realistic limit   extreme limit
# (microns)        (nW m^{-2} sr^{-1})
0.449843 34.4068 35.7565
0.542868 38.8779 42.4258
0.655129 40.6259 47.4169
0.790604 39.3468 48.9981
0.954095 35.239 46.6845
1.1514 28.3496 40.5112
1.3895 22.3478 36.0423
1.67683 17.6265 31.4917
2.02359 14.0447 24.6302
2.44205 12.9416 18.7422
2.94705 11.3698 16.86
3.55648 10.5746 14.3676
4.29193 9.2178 12.7606
5.17947 7.81956 11.2256
6.25055 6.64341 9.7334
7.54312 5.47666 8.96843
9.10298 5.18809 8.09178
10.9854 4.94044 7.37677
13.1278 4.87566 6.78477
15.9866 5.03811 7.30828
19.307 5.08375 7.56811
23.2995 5.40944 7.52128
28.1177 5.60552 7.19927
33.9322 5.77784 7.10212
40.9492 6.48043 9.10624
49.4171 7.18418 11.8397
59.6362 8.62909 14.5282
71.9686 10.9972 16.6521
86.8511 14.3108 18.1951
