#  wavelength (microns)  EBL energy density (nW m^-2 sr^-1)
0.
0.1      1.51635
0.106515 1.51635
0.115579 1.9973
0.125415 2.52045
0.136087 2.97349
0.147668 3.46526
0.160235 3.94068
0.17387 4.39977
0.188667 4.7935
0.204722 5.09613
0.222143 5.31927
0.241048 5.5183
0.26156 5.6551
0.283819 5.75992
0.307971 5.83088
0.334179 5.93896
0.362618 6.04905
0.395778 6.19901
0.429458 6.47044
0.466005 6.79523
0.505661 7.22424
0.548692 7.63346
0.595385 8.16523
0.646051 8.68073
0.701029 9.17245
0.760686 9.69203
0.825419 10.241
0.895662 10.6895
0.971881 11.0894
1.05459 11.4341
1.14433 11.646
1.23449 11.7895
1.34738 11.7895
1.46204 11.646
1.58646 11.4341
1.72146 11.0894
1.87889 10.6895
2.03878 10.1785
2.21227 9.57408
2.40054 8.95056
2.60482 8.21537
2.82648 7.49454
3.06702 6.79523
3.32801 6.08619
3.61122 5.3848
3.96452 4.82294
4.252 4.29333
4.72276 3.75233
5.09486 3.44411
5.40091 3.2795
5.79254 3.10369
6.28548 2.99175
6.82037 2.83137
7.57549 2.69603
8.41423 2.66323
8.91968 2.63082
9.79232 2.5988
10.6256 2.5988
11.3961 2.5988
12.3659 2.56717
13.4967 2.56717
14.6453 2.56717
15.8916 2.52045
17.3448 2.56717
18.738 2.54229
19.3779 2.5515
21.776 2.63082
23.7673 2.69603
25.3425 2.77984
27.66 2.90156
29.8392 3.06592
32.3785 3.25948
35.3394 3.50795
38.1237 3.82188
41.61 4.2152
45.151 4.70626
49.8582 5.15891
54.1011 5.62058
58.705 6.27538
63.7007 6.92119
69.1216 7.7275
75.0037 8.47073
81.3865 9.34247
88.3123 10.241
95.8276 11.0894
103.378 12.0818
112.831 12.8446
122.433 13.6555
132.852 14.3409
144.157 14.9689
156.425 15.529
169.736 15.7203
184.181 15.8168
199.854 15.8168
216.862 15.34
236.693 14.9689
256.835 14.2534
278.692 13.2438
300. 13.2438
